[Version]
1.2.3.4

[Parameters]
Si Dioxide					;Material Name


;data in wavelength (nm), n, k
[Data]
10.00000  0.98740  0.00970
10.20000  0.98650  0.00850
10.40000  0.98510  0.00830
10.60000  0.98410  0.00960
10.80000  0.98480  0.00990
11.00000  0.98440  0.00900
11.20000  0.98220  0.00930
11.40000  0.98280  0.01590
11.60000  0.98670  0.01060
11.80000  0.98580  0.00750
12.00000  0.98390  0.00650
12.20000  0.98230  0.00680
12.40000  0.98130  0.00700
12.60000  0.98030  0.00730
12.80000  0.97940  0.00760
13.00000  0.97890  0.00760
13.20000  0.97780  0.00830
13.40000  0.97700  0.00870
13.60000  0.97610  0.00930
13.80000  0.97470  0.01030
15.00000  0.96340  0.01990
16.00000  0.96080  0.02260
17.00000  0.95620  0.02440
18.00000  0.95090  0.02810
19.00000  0.94580  0.03350
20.00000  0.94160  0.03740
21.00000  0.93860  0.04370
22.00000  0.93280  0.04620
23.00000  0.92710  0.05200
24.00000  0.92220  0.05780
25.00000  0.91640  0.06500
26.00000  0.91050  0.07260
27.00000  0.92070  0.06800
28.00000  0.91750  0.07500
29.00000  0.91370  0.08200
30.00000  0.91300  0.09000
31.00000  0.90700  0.09200
32.00000  0.90100  0.09400
33.00000  0.89500  0.09800
34.00000  0.88800  0.10700
35.00000  0.88200  0.11300
36.00000  0.87700  0.12000
37.00000  0.87000  0.12800
38.00000  0.86600  0.13700
39.00000  0.85800  0.14400
40.00000  0.85100  0.15600
41.00000  0.84500  0.16900
42.00000  0.83900  0.18000
43.00000  0.83300  0.19000
44.00000  0.82700  0.20200
45.00000  0.82200  0.21800
46.00000  0.81700  0.23300
47.00000  0.81300  0.25000
48.00000  0.80800  0.27000
49.00000  0.80400  0.28200
49.59000  0.73300  0.32500
50.00000  0.80300  0.30000
51.00000  0.80400  0.32200
52.00000  0.80600  0.34300
53.00000  0.81100  0.36600
54.00000  0.81700  0.38500
55.00000  0.82200  0.40800
56.00000  0.82900  0.43000
57.00000  0.83300  0.45000
58.00000  0.84300  0.47000
59.00000  0.85100  0.48200
60.00000  0.86200  0.49700
63.58000  0.87900  0.61300
65.26000  0.90200  0.64500
67.01000  0.92700  0.67700
68.88000  0.95700  0.71200
69.85000  0.97500  0.73100
70.85000  0.99900  0.75000
71.87000  1.03000  0.76300
72.93000  1.07200  0.76800
74.02000  1.12400  0.76500
75.14000  1.13700  0.75500
76.30000  1.15600  0.73700
77.49000  1.17200  0.71700
78.72000  1.17800  0.70300
79.99000  1.17200  0.69600
81.30000  1.16700  0.69900
82.66000  1.16800  0.71100
84.05000  1.17500  0.73900
85.51000  1.19500  0.77100
87.00000  1.22500  0.79900
88.56000  1.26500  0.80800
90.17000  1.32000  0.79500
91.84000  1.36300  0.77500
93.57000  1.37100  0.75500
95.37000  1.36800  0.74700
97.24000  1.37200  0.76600
99.19000  1.38300  0.79300
101.20000  1.41000  0.82400
103.30000  1.47500  0.86100
105.10000  1.55400  0.87400
106.90000  1.63500  0.85900
108.80000  1.71600  0.81000
110.70000  1.76600  0.71800
112.70000  1.73900  0.56900
113.70000  1.68700  0.56500
114.80000  1.58700  0.61800
115.90000  1.51300  0.72500
117.00000  1.49200  0.91400
118.10000  1.56700  1.11000
118.70000  1.64500  1.13600
119.20000  1.77200  1.13000
119.80000  1.91900  1.04500
120.40000  2.04800  0.92500
121.00000  2.15200  0.81000
122.80000  2.33200  0.46000
124.00000  2.33000  0.32300
125.20000  2.29200  0.23600
126.50000  2.24300  0.16800
127.80000  2.19000  0.11900
129.10001  2.14000  0.07700
130.50000  2.09200  0.05610
131.89999  2.04700  0.04300
133.30000  2.00600  0.03390
134.80000  1.96900  0.02710
136.20000  1.93500  0.02280
137.80000  1.90400  0.01890
139.30000  1.87600  0.01560
140.89999  1.85000  0.01320
142.50000  1.82500  0.01090
144.20000  1.80300  0.00838
145.89999  1.78300  0.00557
147.60001  1.76400  0.00317
149.39999  1.74700  0.00000
153.10001  1.71600  0.00000
159.00000  1.67600  0.00000
167.50000  1.63300  0.00000
177.10001  1.60000  0.00000
183.70000  1.58200  0.00000
190.70000  1.56700  0.00000
198.39999  1.55400  0.00000
206.60001  1.54300  0.00000
213.89999  1.53400  0.00000
214.39999  1.53400  0.00000
226.70000  1.52300  0.00000
230.20000  1.52000  0.00000
237.80000  1.51500  0.00000
239.89999  1.51300  0.00000
248.30000  1.50800  0.00000
265.20001  1.50000  0.00000
269.89999  1.49800  0.00000
275.29999  1.49600  0.00000
280.29999  1.49400  0.00000
289.39999  1.49100  0.00000
296.70001  1.48900  0.00000
302.20001  1.48700  0.00000
330.29999  1.48100  0.00000
334.10001  1.48000  0.00000
340.39999  1.47900  0.00000
346.60001  1.47700  0.00000
361.10001  1.47500  0.00000
365.00000  1.47400  0.00000
404.70001  1.47000  0.00000
435.79999  1.46700  0.00000
467.79999  1.46400  0.00000
486.10001  1.46300  0.00000
508.60001  1.46200  0.00000
546.00000  1.46000  0.00000
576.90002  1.45900  0.00000
579.00000  1.45900  0.00000
587.59998  1.45800  0.00000
589.29999  1.45800  0.00000
643.79999  1.45700  0.00000
656.29999  1.45600  0.00000
667.79999  1.45600  0.00000
706.50000  1.45500  0.00000
