[Version]
1.2.3.4

[Parameters]
Silicon					;Material Name


;data in wavelength (nm), n, k
[Data]
9.99800  0.99773  0.02060
10.25000  0.99856  0.02120
10.51000  0.99958  0.02190
10.78000  1.00080  0.02260
11.07000  1.00240  0.02330
11.27000  1.00390  0.02390
11.59000  1.00700  0.02470
11.92000  1.01320  0.02560
12.16000  1.02410  0.02620
12.20000  1.02500  0.02400
12.30000  1.03000  0.00500
12.40000  1.03200  0.00154
12.50000  1.03400  0.00100
12.60000  1.03400  0.00102
12.80000  1.03400  0.00109
13.00000  1.03000  0.00113
13.20000  1.02200  0.00120
13.60000  1.00800  0.00130
14.00000  1.00000  0.00143
15.00000  0.99300  0.00178
16.00000  0.99100  0.00215
17.00000  0.98800  0.00254
18.00000  0.98500  0.00297
19.00000  0.98200  0.00343
20.00000  0.97800  0.00393
21.00000  0.97600  0.00443
22.00000  0.97200  0.00500
23.00000  0.96800  0.00553
24.00000  0.96400  0.00610
25.00000  0.96000  0.00670
26.00000  0.95600  0.00730
27.00000  0.95200  0.00785
28.00000  0.94700  0.00840
29.00000  0.94200  0.00900
30.00000  0.93700  0.00950
31.00000  0.93000  0.01000
32.00000  0.92500  0.01040
33.00000  0.91800  0.01000
34.00000  0.91300  0.01130
35.00000  0.90600  0.01170
36.00000  0.89900  0.01210
37.00000  0.89300  0.01240
38.00000  0.88500  0.01280
39.00000  0.87700  0.01320
40.00000  0.86900  0.01350
41.00000  0.86000  0.01380
42.00000  0.85300  0.01420
43.00000  0.84300  0.01470
44.00000  0.83400  0.01520
45.00000  0.82400  0.01580
46.00000  0.81400  0.01680
47.00000  0.80300  0.01780
48.00000  0.79200  0.01920
49.00000  0.77800  0.02050
50.00000  0.76600  0.02230
51.00000  0.75200  0.02430
52.00000  0.73700  0.02640
53.00000  0.72200  0.02920
54.00000  0.70600  0.03250
55.00000  0.69100  0.03650
56.00000  0.67500  0.04050
57.00000  0.65900  0.04550
58.00000  0.64400  0.05100
59.00000  0.62700  0.05800
60.00000  0.61000  0.06500
61.00000  0.59000  0.07400
62.00000  0.56700  0.08350
63.00000  0.54900  0.09300
64.00000  0.53000  0.10000
65.00000  0.51300  0.11300
65.26000  0.51400  0.16300
67.02000  0.48500  0.18900
68.88000  0.45500  0.21900
69.85000  0.44000  0.23700
70.85000  0.42600  0.25500
71.87000  0.41100  0.27500
72.93000  0.39700  0.29600
73.80000  0.38600  0.31400
74.24000  0.37900  0.32300
74.69000  0.37400  0.33300
75.14000  0.36900  0.34200
76.30000  0.35700  0.36700
77.49000  0.34500  0.39400
78.72000  0.33300  0.42100
79.99000  0.32300  0.45000
81.30000  0.31300  0.47900
82.66000  0.30400  0.51000
84.06000  0.29600  0.54100
85.51000  0.28800  0.57300
87.00000  0.28100  0.60700
88.56000  0.27500  0.64100
90.17000  0.26900  0.67700
91.84000  0.26500  0.71400
93.57000  0.26100  0.75200
95.37000  0.25800  0.79200
97.24000  0.25600  0.83300
99.19000  0.25500  0.87500
101.20000  0.25600  0.91800
103.30000  0.25700  0.96300
105.50000  0.25900  1.01000
107.80000  0.26300  1.06000
110.20000  0.26700  1.11000
112.70000  0.27200  1.16000
115.30000  0.27800  1.21000
118.10000  0.28600  1.26000
121.00000  0.29500  1.32000
124.00000  0.30600  1.38000
127.20000  0.31800  1.45000
130.50000  0.33200  1.51000
134.00000  0.34800  1.58000
137.80000  0.36700  1.66000
141.70000  0.38900  1.73000
145.89999  0.41400  1.82000
155.00000  0.47800  2.00000
165.30000  0.56300  2.21000
177.10001  0.68200  2.45000
183.70000  0.75600  2.58000
190.70000  0.84700  2.73000
198.39999  0.96800  2.89000
206.60001  1.01000  2.91000
208.70000  1.06600  2.94000
210.89999  1.08800  2.99000
213.00000  1.11900  3.03000
215.30000  1.15500  3.07000
217.50000  1.18000  3.11000
219.80000  1.22200  3.17000
222.20000  1.26500  3.23000
224.60001  1.31900  3.29000
227.10001  1.38900  3.33000
229.60001  1.47100  3.37000
232.20000  1.54800  3.36000
234.80000  1.58500  3.35000
237.50000  1.59200  3.35000
240.30000  1.58200  3.38000
243.10001  1.57100  3.43000
246.00000  1.56800  3.50000
249.00000  1.57500  3.60000
252.00000  1.59100  3.71000
255.10001  1.61800  3.84000
258.29999  1.65800  3.98000
261.60001  1.71300  4.15000
264.89999  1.79400  4.35000
268.39999  1.92700  4.59000
271.89999  2.14000  4.85000
275.50000  2.45100  5.08000
279.20001  2.83300  5.26000
283.10001  3.27700  5.38000
287.00000  3.84900  5.44000
291.00000  4.52500  5.16000
295.20001  4.88800  4.64000
299.50000  4.99900  4.20000
303.89999  5.02100  3.88000
308.39999  5.01500  3.65000
313.10001  5.01000  3.48000
317.89999  5.01600  3.35000
322.89999  5.04000  3.24000
328.00000  5.07900  3.15000
333.29999  5.13400  3.08000
338.79999  5.20400  3.02000
344.39999  5.29600  2.99000
350.20001  5.44200  2.99000
356.29999  5.73300  3.03000
362.50000  6.30800  2.88000
369.00000  6.79600  2.17000
375.70001  6.70900  1.32000
382.70001  6.31600  0.81000
389.89999  5.94800  0.56000
397.39999  5.65400  0.42000
405.20001  5.42000  0.33000
413.29999  5.22200  0.27000
421.70001  5.05800  0.23000
430.50000  4.91600  0.19000
439.70001  4.79100  0.17000
449.20001  4.68200  0.15000
459.20001  4.58300  0.13000
469.60001  4.49500  0.12000
480.60001  4.41600  0.09000
492.00000  4.34300  0.08000
499.89999  4.29800  0.07000
504.00000  4.27700  0.07000
508.10001  4.25500  0.07200
512.29999  4.23500  0.06000
516.59998  4.21500  0.06000
520.90002  4.19600  0.05600
525.40002  4.17700  0.05300
529.90002  4.15900  0.04300
534.40002  4.14000  0.04500
539.09998  4.12300  0.04800
543.79999  4.10600  0.04400
548.59998  4.08900  0.04400
553.50000  4.07300  0.03200
558.50000  4.05700  0.03800
563.59998  4.04200  0.03200
568.70001  4.02600  0.03400
574.00000  4.01200  0.03000
579.40002  3.99700  0.02700
584.79999  3.98300  0.03000
590.40002  3.96900  0.03000
596.09998  3.95600  0.02700
601.90002  3.94300  0.02500
607.79999  3.93100  0.02500
613.79999  3.91800  0.02400
619.90002  3.90600  0.02200
626.20001  3.89300  0.02200
632.59998  3.88200  0.01900
639.09998  3.87000  0.01800
645.79999  3.85800  0.01700
